label_name,t,n,mean,std,q25,q50,q75,time_s
F,0,803,0.9242291737696943,0.1764617749839555,0.9016393423080444,1.0,1.0,0.0
F,1,803,0.8685341674514384,0.16266865458252075,0.824999988079071,0.9064171314239502,0.9645203948020935,0.008
F,2,803,0.6165662302008156,0.2047858711648874,0.4693593382835388,0.6042780876159668,0.739130437374115,0.016
F,3,803,0.3470326502660143,0.1918709938763615,0.22773972153663635,0.3081285357475281,0.4062078297138214,0.024
F,4,803,0.19585132101031105,0.16663393673760668,0.11054421961307526,0.16520211100578308,0.21572211384773254,0.032
F,5,803,0.17071336063708306,0.1312837554142449,0.11224489659070969,0.14115646481513977,0.1805555522441864,0.04
F,6,803,0.15501103872969135,0.11424401064902774,0.1040118858218193,0.13360881805419922,0.16300366818904877,0.048
F,7,803,0.13204076191976408,0.11088791151481057,0.0810810774564743,0.11258278042078018,0.14359861612319946,0.056
F,8,803,0.12012723496602443,0.11057919237452334,0.07056451588869095,0.09792843461036682,0.1364392638206482,0.064
F,9,803,0.11382891569265709,0.11252563397911143,0.06292516738176346,0.09057971090078354,0.12921348214149475,0.072
F,10,803,0.10815703089129769,0.1161505218923222,0.05568181723356247,0.08271787315607071,0.12241379171609879,0.08
F,11,803,0.10345665947766104,0.11981112427941283,0.048327136784791946,0.07805906981229782,0.1195652186870575,0.088
F,12,803,0.0985932291800256,0.1205342356235881,0.038910504430532455,0.072356216609478,0.1172214150428772,0.096
F,13,803,0.09548825378167869,0.12179185190812876,0.03184713423252106,0.0680147036910057,0.11631015688180923,0.104
F,14,803,0.09211981535647389,0.12354679646191256,0.025691699236631393,0.06358381360769272,0.11229946464300156,0.112
F,15,803,0.0902208114001705,0.12499256809923212,0.01963350735604763,0.0607638880610466,0.11190053075551987,0.12
F,16,803,0.08920030463788459,0.1268211614810918,0.016260161995887756,0.059813085943460464,0.10977701842784882,0.128
F,17,803,0.0899048645939773,0.1288620478756979,0.01600000075995922,0.05890411138534546,0.11408199369907379,0.136
F,18,803,0.09226225364946321,0.13140182865140276,0.016296295449137688,0.05823293328285217,0.11764705926179886,0.144
F,19,803,0.09656500057920414,0.13305722526029234,0.019354838877916336,0.05945945903658867,0.12406948208808899,0.152
F,20,803,0.10353567058326048,0.13502765685289686,0.02500000037252903,0.06425702571868896,0.13825757801532745,0.16
F,21,803,0.11330380481867883,0.13687510717601906,0.033088237047195435,0.07471264153718948,0.15304605662822723,0.168
F,22,803,0.1267041876876743,0.1387035797314762,0.04534313827753067,0.08961039036512375,0.17067833244800568,0.176
F,23,803,0.1422353740324873,0.13922401250150954,0.057866185903549194,0.10902895778417587,0.18899083137512207,0.184
F,24,803,0.1599929641525158,0.14124846772033178,0.07133758068084717,0.1311953365802765,0.20695970952510834,0.192
F,25,803,0.1802736974485418,0.14313202634756014,0.08703703433275223,0.15481650829315186,0.23186343908309937,0.2
F,26,803,0.2001918962904963,0.1442358701132826,0.10385064035654068,0.180024653673172,0.258382648229599,0.208
F,27,803,0.2209895813614675,0.14275828144088237,0.12778905034065247,0.20476190745830536,0.2797833979129791,0.216
F,28,803,0.24014610474219414,0.14203042079425734,0.14364640414714813,0.22680412232875824,0.3039073944091797,0.224
F,29,802,0.2557703953612587,0.1401157166228855,0.1581818163394928,0.24548736214637756,0.322946161031723,0.232
F,30,801,0.26658618773104675,0.1383675026889072,0.16959063708782196,0.25609755516052246,0.3379693925380707,0.24
F,31,800,0.27283826731727456,0.136332585258906,0.17570093274116516,0.26408451795578003,0.34646740555763245,0.248
F,32,797,0.2740501264329892,0.13405203862987244,0.17793594300746918,0.26878979802131653,0.34962964057922363,0.256
F,33,793,0.2730846273352264,0.13051317301457108,0.17820069193840027,0.2732558250427246,0.3465491831302643,0.264
F,34,791,0.2687349634247393,0.1278490021246561,0.17472119629383087,0.2733812928199768,0.3405114412307739,0.272
F,35,791,0.26228641386599516,0.12415383879762347,0.17374517023563385,0.2659430205821991,0.3302469253540039,0.28
F,36,790,0.25482503899809306,0.12073060664789918,0.1702127605676651,0.25205478072166443,0.3171912729740143,0.288
F,37,790,0.24627609203652112,0.11548121049322516,0.170689657330513,0.237383171916008,0.3008631467819214,0.296
F,38,789,0.2374306039929541,0.1091933752684366,0.16859504580497742,0.2295081913471222,0.2855280339717865,0.304
F,39,787,0.229001195684757,0.10375108199411757,0.1701754331588745,0.21568627655506134,0.2704326808452606,0.312
F,40,787,0.22117363649930477,0.10050364145380555,0.17037037014961243,0.20883534848690033,0.25331369042396545,0.32
F,41,787,0.2157800735567319,0.09873019346795278,0.16949152946472168,0.20281124114990234,0.24119718372821808,0.328
F,42,787,0.21301937911329907,0.09687674168137524,0.1701388955116272,0.19945354759693146,0.23401688039302826,0.336
F,43,786,0.2132953555766332,0.09670898781703223,0.17272727191448212,0.1988217979669571,0.23076923191547394,0.344
F,44,784,0.21628370867063273,0.09482523085759463,0.1735074669122696,0.20115774869918823,0.2338983118534088,0.352
F,45,784,0.22327831148987218,0.09483467428469985,0.1796407252550125,0.20792078971862793,0.24278438091278076,0.36
F,46,783,0.2346714701489242,0.0978746163276835,0.18400000035762787,0.21830986440181732,0.26017263531684875,0.368
F,47,783,0.25210843671536687,0.10470152026393745,0.19574467837810516,0.23630136251449585,0.2872200310230255,0.376
F,48,782,0.27333139920669136,0.11448341641893685,0.20785804092884064,0.2584134638309479,0.3089887499809265,0.384
F,49,781,0.29805508801157893,0.1282980005686212,0.2253711223602295,0.2777777910232544,0.33142855763435364,0.392
F,50,781,0.3228244020170729,0.1439455488373634,0.24124513566493988,0.2918367385864258,0.35568180680274963,0.4
F,51,781,0.34395587243015724,0.16538505570265993,0.23782235383987427,0.30000001192092896,0.39516130089759827,0.408
F,52,780,0.3610924309597183,0.18857533864483508,0.22338829934597015,0.2979350984096527,0.46577945351600647,0.416
F,53,780,0.37536831201078036,0.2101102160611427,0.21233859658241272,0.29339852929115295,0.5472837090492249,0.424
F,54,780,0.38410639222711324,0.22675849982735255,0.20584145188331604,0.2787500023841858,0.6101694703102112,0.432
F,55,780,0.3882209327549506,0.23807743554170477,0.20058564841747284,0.2638717591762543,0.6381818056106567,0.44
F,56,780,0.38805441953337344,0.24126669742384452,0.19687092304229736,0.24965894222259521,0.6405990123748779,0.448
F,57,780,0.3806370884753191,0.237267146712821,0.19710907340049744,0.24441833794116974,0.6351351141929626,0.456
F,58,780,0.3706565804588489,0.22983757001452568,0.19538462162017822,0.2397179752588272,0.618369996547699,0.464
F,59,779,0.3552409565274691,0.21939211790247767,0.19440914690494537,0.23708206415176392,0.5931283831596375,0.472
F,60,779,0.333889376075606,0.20947814489030128,0.1913580298423767,0.23059360682964325,0.5235507488250732,0.48
F,61,778,0.31368792157112635,0.20048709792560906,0.18497109413146973,0.22688040137290955,0.4368421137332916,0.488
F,62,778,0.30595877329438237,0.1956586117652759,0.17690058052539825,0.23025435209274292,0.4158730208873749,0.496
F,63,775,0.3194002948893655,0.2153152717068807,0.164591982960701,0.24399039149284363,0.44495412707328796,0.504
F,64,775,0.34703402657302157,0.257037074301199,0.14717741310596466,0.25224214792251587,0.532281219959259,0.512
F,65,774,0.36871261592444216,0.2879129588888188,0.11985018849372864,0.25732484459877014,0.6201117038726807,0.52
F,66,773,0.3618916530881371,0.2974636367620625,0.09220778942108154,0.27272728085517883,0.616174578666687,0.528
F,67,761,0.33209236990017926,0.2976288789176846,0.06525573134422302,0.2222222238779068,0.5924369692802429,0.536
F,68,747,0.2894966329307354,0.29795090550067416,0.048327136784791946,0.15000000596046448,0.4842681288719177,0.544
F,69,721,0.2431073965533506,0.2728872641952043,0.04259259253740311,0.12267658114433289,0.33398059010505676,0.552
F,70,702,0.19921387646276306,0.23194505864489093,0.0356164388358593,0.10638298094272614,0.2556818127632141,0.56
F,71,667,0.17149201730884767,0.1946443048845136,0.040660735219717026,0.11196911334991455,0.2105855792760849,0.568
F,72,635,0.15712834600483866,0.1811866312940964,0.03993344306945801,0.11158192157745361,0.18169398605823517,0.576
F,73,606,0.1554015378251429,0.17605787728473377,0.056640625,0.10978835821151733,0.17273953557014465,0.584
F,74,564,0.1573197504025405,0.1659955092721149,0.07868020236492157,0.11436541378498077,0.1736111044883728,0.592
F,75,536,0.1591268749488431,0.1611739147715966,0.08443272113800049,0.11484593898057938,0.1739645004272461,0.6
F,76,497,0.16286536335352045,0.15845170001551223,0.08689248561859131,0.11538461595773697,0.18103447556495667,0.608
F,77,447,0.16654422980893646,0.15913715657992336,0.08916323632001877,0.11408450454473495,0.18097753822803497,0.616
F,78,384,0.17056364068078742,0.1529691663637511,0.09161290526390076,0.11866859346628189,0.19565217196941376,0.624
F,79,306,0.18849798453381297,0.1695471114744267,0.09836065769195557,0.12660551071166992,0.21187427639961243,0.632
F,80,241,0.2053554822957429,0.19298961772451495,0.09778357297182083,0.13934426009655,0.2250608205795288,0.64
F,81,181,0.22293008370929557,0.1859571920126581,0.10499999672174454,0.1627907007932663,0.26301369071006775,0.648
F,82,145,0.2330953648538682,0.2044111112101659,0.10204081982374191,0.1631067991256714,0.2654867172241211,0.656
F,83,118,0.25281602442777573,0.20125106953619473,0.12054794281721115,0.17739130556583405,0.2839506268501282,0.664
F,84,103,0.2647467690872625,0.2082080466542447,0.1328413337469101,0.18385650217533112,0.3066439628601074,0.672
F,85,93,0.28523447997467494,0.22137910136039832,0.13897280395030975,0.20081967115402222,0.35975611209869385,0.68
F,86,86,0.3017845602576123,0.23336483468058866,0.12386707216501236,0.20576922595500946,0.45975443720817566,0.688
F,87,75,0.3317125824838877,0.27463675991595826,0.13398058712482452,0.22285714745521545,0.4923076927661896,0.696
F,88,70,0.347097365657932,0.2919641527020748,0.12386707216501236,0.21523809432983398,0.5246636867523193,0.704
F,89,64,0.34944508378976025,0.2915911313156881,0.13897280395030975,0.20962199568748474,0.5291479825973511,0.712
F,90,59,0.31754116426711365,0.24923558813543445,0.12641508877277374,0.2242647111415863,0.4991150498390198,0.72
F,91,55,0.28782019872557035,0.2127480711610482,0.1261538416147232,0.22081218659877777,0.40204429626464844,0.728
F,92,50,0.28455939538776875,0.23452797737331102,0.12691466510295868,0.17045454680919647,0.40287768840789795,0.736
F,93,48,0.2985390725079924,0.2408253267989639,0.12999999523162842,0.18677042424678802,0.40418118238449097,0.744
F,94,46,0.31508210522082186,0.2518924117349957,0.12323231995105743,0.20987653732299805,0.4938461482524872,0.752
F,95,41,0.3301565136487891,0.26175112638457043,0.14696486294269562,0.21305841207504272,0.4953846037387848,0.76
N,0,90589,0.9160287751277286,0.21042938550688148,0.9440677762031555,0.9972144961357117,1.0,0.0
N,1,90589,0.7785282942613705,0.19625679433296236,0.71659916639328,0.8324742317199707,0.9102990031242371,0.008
N,2,90589,0.403737547212261,0.21424654101388663,0.24014337360858917,0.409411758184433,0.5562130212783813,0.016
N,3,90589,0.17780993463174227,0.16564497940945436,0.03878583386540413,0.1317647099494934,0.28100115060806274,0.024
N,4,90589,0.16433053253315957,0.13155627990353752,0.07510729879140854,0.13265305757522583,0.21937322616577148,0.032
N,5,90589,0.18040439711570483,0.13910430094456094,0.08250000327825546,0.14143919944763184,0.24883177876472473,0.04
N,6,90589,0.1798230936118257,0.15519512215348982,0.06727828830480576,0.13226744532585144,0.262734591960907,0.048
N,7,90589,0.18035521225901863,0.16216251944612534,0.06122449040412903,0.12790697813034058,0.2681564390659332,0.056
N,8,90589,0.18295660530765204,0.1647322489836753,0.05954466015100479,0.13235294818878174,0.27259260416030884,0.064
N,9,90589,0.18807853290269674,0.16580538736632916,0.06313131004571915,0.13793103396892548,0.2773246467113495,0.072
N,10,90588,0.19499331730464972,0.16882284747472429,0.06734693795442581,0.14022140204906464,0.28938907384872437,0.08
N,11,90588,0.20058475899114792,0.17210812097514003,0.06779661029577255,0.14523810148239136,0.2949640154838562,0.088
N,12,90588,0.20476045412593474,0.17444678807832295,0.06787330657243729,0.15148064494132996,0.2996987998485565,0.096
N,13,90588,0.208009884323796,0.1769049585802209,0.06730769574642181,0.15659955143928528,0.30452674627304077,0.104
N,14,90588,0.21140168885184055,0.17935031944095473,0.0680147036910057,0.16013072431087494,0.30821916460990906,0.112
N,15,90588,0.21475215337683792,0.1818118672842335,0.06896551698446274,0.16171617805957794,0.3122977316379547,0.12
N,16,90588,0.21849610831116292,0.18442763709979554,0.07078039646148682,0.16293278336524963,0.31712964177131653,0.128
N,17,90587,0.22263866515700834,0.18735202359852718,0.07258064299821854,0.16470588743686676,0.32211539149284363,0.136
N,18,90585,0.2271976461122897,0.19032681146143626,0.07478632777929306,0.16727273166179657,0.32839223742485046,0.144
N,19,90584,0.23190630870300308,0.19333575403109593,0.0762711837887764,0.1718464344739914,0.335268497467041,0.152
N,20,90582,0.23706167978798892,0.19641543216832252,0.07798165082931519,0.17826825380325317,0.3426470458507538,0.16
N,21,90579,0.24240265512197767,0.19909053522037096,0.08016877621412277,0.18656715750694275,0.3505154550075531,0.168
N,22,90575,0.24832580541117358,0.2017628674505882,0.08363636583089828,0.19646799564361572,0.3589108884334564,0.176
N,23,90570,0.25432828594969414,0.20377143808273926,0.08791209012269974,0.2057877779006958,0.36688312888145447,0.184
N,24,90565,0.26038676919854953,0.2053547408003471,0.09245283156633377,0.21488763391971588,0.3730570077896118,0.192
N,25,90556,0.26619803034664946,0.20651375370494426,0.09708737581968307,0.22325581312179565,0.3794326186180115,0.2
N,26,90550,0.2721987842418863,0.2075181823511509,0.10223641991615295,0.23076923191547394,0.3861003816127777,0.208
N,27,90539,0.2778611902725392,0.2083687560338902,0.10795454680919647,0.2388664036989212,0.39419087767601013,0.216
N,28,90522,0.28340139706871953,0.2092381495538094,0.113712377846241,0.24642856419086456,0.400778204202652,0.224
N,29,90503,0.2884713714718345,0.20988902426075182,0.11969111859798431,0.25462013483047485,0.403940886259079,0.232
N,30,90483,0.29314752018994283,0.20993561963417667,0.12647059559822083,0.260869562625885,0.40504202246665955,0.24
N,31,90473,0.29698018769329426,0.20951508299066257,0.1335740089416504,0.2657894790172577,0.4045138955116272,0.248
N,32,90454,0.2998013324067814,0.20809158718226586,0.1413881778717041,0.2691415250301361,0.40281689167022705,0.256
N,33,90431,0.30161944307635064,0.20603764883740786,0.14805825054645538,0.2731006145477295,0.4000000059604645,0.264
N,34,90403,0.3025051930173687,0.20374292253294574,0.15302491188049316,0.2761194109916687,0.3981693387031555,0.272
N,35,90376,0.3026509105698766,0.2015380198286878,0.1552795022726059,0.2770562767982483,0.39534884691238403,0.28
N,36,90354,0.3018434046223664,0.19920614950064403,0.15471698343753815,0.27450981736183167,0.39425981044769287,0.288
N,37,90308,0.2999215810757192,0.19673528235993995,0.15270936489105225,0.2678571343421936,0.3954372704029083,0.296
N,38,90260,0.29697884571222477,0.19419835437549646,0.1504424810409546,0.2590266764163971,0.3972055912017822,0.304
N,39,90211,0.29283892480975526,0.1913894460357658,0.14790287613868713,0.25,0.39606741070747375,0.312
N,40,90177,0.2881510927566243,0.18861097144506794,0.14558058977127075,0.24114671349525452,0.3924843370914459,0.32
N,41,90144,0.28317303520532894,0.18585749346919397,0.1428571492433548,0.23373983800411224,0.38743454217910767,0.328
N,42,90112,0.2783265232900153,0.18326712665654069,0.13975903391838074,0.2291262149810791,0.3800424635410309,0.336
N,43,90081,0.2736161200195214,0.1809219651196383,0.13652482628822327,0.22580644488334656,0.3725212514400482,0.344
N,44,90050,0.26912995770133036,0.1785167876819382,0.13341346383094788,0.223300963640213,0.3647541105747223,0.352
N,45,90023,0.2646457238235006,0.17599683050956663,0.13031160831451416,0.2211538404226303,0.3571428656578064,0.36
N,46,89995,0.2608787614803784,0.17402162685743042,0.12727272510528564,0.2200489044189453,0.3506849408149719,0.368
N,47,89967,0.2578451872935668,0.17289058414704392,0.12429378181695938,0.2182130515575409,0.34632036089897156,0.376
N,48,89928,0.25581964569818166,0.17220946260543593,0.12195122241973877,0.2193126082420349,0.3451676666736603,0.384
N,49,89871,0.2544252619247997,0.1715701957756084,0.11999999731779099,0.22003929316997528,0.3452991545200348,0.392
N,50,89825,0.25398172804584734,0.17173214271864995,0.11874999850988388,0.2211981564760208,0.34567901492118835,0.4
N,51,89777,0.25386059507164926,0.1721527116546175,0.11778846383094788,0.22205881774425507,0.34660765528678894,0.408
N,52,89726,0.2539335120791941,0.17298897800750618,0.11743772029876709,0.22131147980690002,0.34741783142089844,0.416
N,53,89661,0.25386455840975164,0.17386001283701413,0.11725663393735886,0.2201680690050125,0.3484848439693451,0.424
N,54,89591,0.25408601775615536,0.1746225945084395,0.11714285612106323,0.21904762089252472,0.3498098850250244,0.432
N,55,89508,0.2543987491631066,0.17545955694873194,0.11764705926179886,0.21794871985912323,0.3511904776096344,0.44
N,56,89428,0.2549716748258021,0.1763584133059293,0.11864406615495682,0.21686747670173645,0.35222673416137695,0.448
N,57,89348,0.25581135967732443,0.17723207151899886,0.12040816247463226,0.21684867143630981,0.35211268067359924,0.456
N,58,89266,0.2570325780017826,0.17815116483067317,0.12230215966701508,0.2161571979522705,0.35227271914482117,0.464
N,59,89171,0.25872489554030537,0.1802306151619913,0.12411347776651382,0.2148997187614441,0.35199999809265137,0.472
N,60,89046,0.26104187118017225,0.1829737065311895,0.12669683992862701,0.2145749032497406,0.3514644205570221,0.48
N,61,88922,0.2633520407544867,0.18628078450601337,0.12878787517547607,0.2143927961587906,0.35062241554260254,0.488
N,62,88765,0.26531540409663323,0.18901442722475775,0.12997347116470337,0.2142857164144516,0.35087719559669495,0.496
N,63,88598,0.2673140628148006,0.19223575639643029,0.13078470528125763,0.21565216779708862,0.35037878155708313,0.504
N,64,88417,0.2702846638567678,0.1976200008975073,0.13028168678283691,0.21712538599967957,0.35087719559669495,0.512
N,65,88236,0.2738243669647044,0.20381909050600983,0.12977099418640137,0.2195121943950653,0.35233160853385925,0.52
N,66,87966,0.276037588999469,0.207619583226047,0.12820513546466827,0.2222222238779068,0.3529411852359772,0.528
N,67,87688,0.2752166281281753,0.20836685405003527,0.12529002130031586,0.22295081615447998,0.35245901346206665,0.536
N,68,87417,0.2724012181838407,0.2065250385266794,0.12201591581106186,0.2224137932062149,0.35142117738723755,0.544
N,69,87171,0.2684250863076189,0.20432606895600075,0.11797752976417542,0.22087378799915314,0.34810125827789307,0.552
N,70,86942,0.2648206400460307,0.2030835226641832,0.11401869356632233,0.21674877405166626,0.34504133462905884,0.56
N,71,86636,0.261679296340984,0.20189887321343733,0.1119791641831398,0.21364451944828033,0.3413284122943878,0.568
N,72,86249,0.25890960177146904,0.19920309530266153,0.11079545319080353,0.21203438937664032,0.3387534022331238,0.576
N,73,85738,0.25615948647313896,0.19723968572209868,0.10948905348777771,0.21082089841365814,0.3356974124908447,0.584
N,74,85205,0.25510697375897085,0.19726234981390536,0.10884353518486023,0.20955315232276917,0.33528265357017517,0.592
N,75,84601,0.2564254386074551,0.19993398670753662,0.10857142508029938,0.20883534848690033,0.33656957745552063,0.6
N,76,83967,0.2606842597821085,0.20532789117417752,0.10958904027938843,0.20987653732299805,0.34057971835136414,0.608
N,77,83161,0.2666351001211925,0.21328873871976226,0.11020407825708389,0.21212121844291687,0.347533643245697,0.616
N,78,82189,0.27277796400129717,0.22025428774521777,0.1111111119389534,0.21447721123695374,0.35574230551719666,0.624
N,79,81023,0.2770619685187636,0.22443019451691815,0.11141304671764374,0.21588090062141418,0.3639846742153168,0.632
N,80,79722,0.2799431393478848,0.22864736037113698,0.11124999821186066,0.2155074179172516,0.3698924779891968,0.64
N,81,78520,0.2821543460914096,0.2333767852590516,0.10972568392753601,0.2145015150308609,0.375,0.648
N,82,77480,0.2848346538670422,0.24033505217304527,0.10803323984146118,0.21146953105926514,0.3794466257095337,0.656
N,83,76554,0.287039851295351,0.2457301355447338,0.10549450665712357,0.20948617160320282,0.38519924879074097,0.664
N,84,75760,0.2879568756655731,0.24849530707324646,0.10379746556282043,0.20825515687465668,0.3888888955116272,0.672
N,85,74992,0.28832589276364096,0.25191116506123895,0.09944751113653183,0.20703125,0.3911290466785431,0.68
N,86,74259,0.288074496728944,0.2548045161953841,0.09650924056768417,0.20599250495433807,0.3920145332813263,0.688
N,87,73539,0.2853508320612909,0.25530171063222135,0.09189189225435257,0.20212766528129578,0.38652482628822327,0.696
N,88,72779,0.27943462532412594,0.2529022870842556,0.0882352963089943,0.19663865864276886,0.37662336230278015,0.704
N,89,71977,0.2714548064691526,0.24870030433016813,0.08368200808763504,0.18994413316249847,0.3645320236682892,0.712
N,90,71092,0.2632188452110244,0.2421971805386795,0.08080808073282242,0.18300653994083405,0.35546037554740906,0.72
N,91,70075,0.25592255106581724,0.23500144788298885,0.0793650820851326,0.1794871836900711,0.3480769097805023,0.728
N,92,68763,0.25097060695416845,0.22916147136001633,0.07838480174541473,0.17751479148864746,0.34238311648368835,0.736
N,93,67282,0.24848621813999014,0.22530418878560732,0.07884615659713745,0.17680607736110687,0.34018266201019287,0.744
N,94,65642,0.2483402410031709,0.2232700132849844,0.07981220632791519,0.17768594622612,0.34038054943084717,0.752
N,95,63911,0.2496755592803804,0.22287449566860856,0.08040200918912888,0.17894737422466278,0.34257426857948303,0.76
N,96,62329,0.25141013432875303,0.22322868265058898,0.08133970946073532,0.17910447716712952,0.3452380895614624,0.768
N,97,60661,0.25377774526008545,0.22428587182325765,0.0833333358168602,0.1797468364238739,0.3479020893573761,0.776
N,98,59084,0.25770116052771425,0.22782891900585098,0.08530806005001068,0.18013468384742737,0.35180723667144775,0.784
N,99,57361,0.26197379000782156,0.23057952988690925,0.08791209012269974,0.18165136873722076,0.35593220591545105,0.792
N,100,55567,0.26590233318810064,0.2339996409007983,0.09056603908538818,0.18333333730697632,0.36000001430511475,0.8
N,101,53801,0.26871451988789696,0.23660288922549783,0.09210526198148727,0.18430034816265106,0.363095223903656,0.808
N,102,51977,0.27021034410303807,0.23764988762651854,0.09322033822536469,0.18478260934352875,0.3650546073913574,0.816
N,103,50091,0.2712339883830544,0.23841355018713853,0.09454545378684998,0.1848248988389969,0.36614173650741577,0.824
N,104,48286,0.2721825011047309,0.23870825460261577,0.09514170140028,0.1863517016172409,0.36899223923683167,0.832
N,105,46521,0.2731906331282893,0.23968288536456886,0.095238097012043,0.18861210346221924,0.37037035822868347,0.84
N,106,44732,0.2747010525254836,0.24044152579084435,0.09645669162273407,0.1902097910642624,0.37362638115882874,0.848
N,107,43163,0.27506571498101506,0.23852903773918802,0.09717868268489838,0.19361276924610138,0.3760683834552765,0.856
N,108,41786,0.27491984278802023,0.23738068565721826,0.09677419066429138,0.19665272533893585,0.37812501192092896,0.864
N,109,40621,0.27499117467733075,0.2352828257165088,0.09708737581968307,0.20049504935741425,0.37924864888191223,0.872
N,110,39524,0.27447791953942197,0.23266436941136165,0.09749670326709747,0.20433436334133148,0.379084974527359,0.88
N,111,38509,0.2732756851510553,0.23056351593227192,0.09677419066429138,0.20555555820465088,0.3791821599006653,0.888
N,112,37523,0.2727629329589552,0.2287528867776466,0.09657321125268936,0.21033211052417755,0.3759689927101135,0.896
N,113,36563,0.27236735788900046,0.22587618921548452,0.0974658876657486,0.21511627733707428,0.37735849618911743,0.904
N,114,35622,0.27295380207651615,0.22523778665762054,0.09794988483190536,0.2183908075094223,0.37704917788505554,0.912
N,115,34734,0.2750403475945198,0.22485978899514075,0.0988142266869545,0.2249240130186081,0.3791821599006653,0.92
N,116,33803,0.27810167358497606,0.2259837198028158,0.1001964658498764,0.23350253701210022,0.3815789520740509,0.928
N,117,32865,0.2818014211794561,0.22696178915115883,0.10133843123912811,0.24152542650699615,0.38763198256492615,0.936
N,118,31864,0.2861646847660872,0.22794191042105158,0.10441767424345016,0.24881140887737274,0.3930130898952484,0.944
N,119,30820,0.2904137707320069,0.2306053652868361,0.10648148506879807,0.2544570565223694,0.3978494703769684,0.952
N,120,29800,0.2950533660671958,0.23350885953142997,0.10739436745643616,0.2595978081226349,0.40625,0.96
N,121,28664,0.29909264253119194,0.23601500998828948,0.10904255509376526,0.2645051181316376,0.41370558738708496,0.968
N,122,27588,0.3013230842518117,0.23699387065965724,0.10967741906642914,0.26875001192092896,0.4154929518699646,0.976
N,123,26515,0.3016549643034099,0.237189834258153,0.10905729979276657,0.27031248807907104,0.4126213490962982,0.984
N,124,25472,0.3025295500244681,0.23804558667161604,0.11007462441921234,0.27129337191581726,0.411255419254303,0.992
N,125,24507,0.3030048476462424,0.23800111053881043,0.10948905348777771,0.2737002968788147,0.4092409312725067,1.0
N,126,23539,0.3020931136357105,0.23840634516051235,0.10920436680316925,0.272549033164978,0.4055117964744568,1.008
N,127,22632,0.300356520338108,0.23719023950871967,0.10912343114614487,0.2728813588619232,0.3984375,1.016
N,128,21797,0.29761344489090885,0.23622008320825572,0.10784313827753067,0.2698706090450287,0.3909774422645569,1.024
N,129,21004,0.29547236963833956,0.23424560978794104,0.10683760792016983,0.27112674713134766,0.38805970549583435,1.032
N,130,20197,0.29508802387855326,0.23473288184308636,0.10599078238010406,0.2708333432674408,0.385869562625885,1.04
N,131,19444,0.2971487891366553,0.23766543060506828,0.10652920603752136,0.27155962586402893,0.38695651292800903,1.048
N,132,18717,0.29909808540248367,0.2404117165856562,0.10810811072587967,0.2710566520690918,0.38837921619415283,1.056
N,133,18046,0.3018189322517021,0.24400781724289236,0.1090909093618393,0.2698412835597992,0.3918918967247009,1.064
N,134,17411,0.30492978149171407,0.24804028423040228,0.10994764417409897,0.26923078298568726,0.4000000059604645,1.072
N,135,16751,0.3089624247142317,0.2530071659498859,0.10993657261133194,0.2690909206867218,0.410526305437088,1.08
N,136,16130,0.3123844725408006,0.2590578300141303,0.1105990782380104,0.26557376980781555,0.41428571939468384,1.088
N,137,15485,0.31270560537799313,0.2623492252907433,0.1089918240904808,0.2606557309627533,0.4135020971298218,1.096
N,138,14888,0.3107005271112123,0.2626696111095814,0.10843373835086823,0.2544802725315094,0.40740740299224854,1.104
N,139,14267,0.3081213404244598,0.26563493887946055,0.10505836457014084,0.2455795705318451,0.40192925930023193,1.112
N,140,13617,0.3047360097664226,0.26534361925434974,0.10227272659540176,0.23716814815998077,0.3913043439388275,1.12
N,141,13048,0.2990870479255614,0.26142341968227456,0.09912536293268204,0.23344947397708893,0.3795761168003082,1.128
N,142,12473,0.29383160052678425,0.2576232659395769,0.09636363387107849,0.22826087474822998,0.37384897470474243,1.136
N,143,11902,0.28975733611992316,0.25267403661436233,0.09415584057569504,0.22676579654216766,0.3726937174797058,1.144
N,144,11313,0.2861802303092612,0.24819346978449955,0.09375,0.22525596618652344,0.37142857909202576,1.152
N,145,10737,0.28236297275520394,0.24155872123897731,0.09177820384502411,0.22580644488334656,0.3757225573062897,1.16
N,146,10205,0.27995507461322305,0.23505879829374915,0.0897703543305397,0.22885571420192719,0.3821656107902527,1.168
N,147,9666,0.27995928005405357,0.23232635526381512,0.08726003766059875,0.23220974206924438,0.39350181818008423,1.176
N,148,9167,0.2828488054936641,0.23415635431217777,0.0836431235074997,0.2374350130558014,0.41025641560554504,1.184
N,149,8696,0.28559114209869674,0.2341792695045957,0.0839160829782486,0.24568137526512146,0.4214559495449066,1.192
N,150,8269,0.2877426766909554,0.23427596149728397,0.08361774682998657,0.2486288845539093,0.4326923191547394,1.2
N,151,7861,0.28960004992109367,0.23468509221102782,0.08168316632509232,0.25190839171409607,0.4444444477558136,1.208
N,152,7518,0.29209690843900826,0.23566054136400635,0.08196721225976944,0.2567567527294159,0.4515151381492615,1.216
N,153,7125,0.2927520254418875,0.23454157100652695,0.08214285969734192,0.2602291405200958,0.45768025517463684,1.224
N,154,6803,0.29333565073823914,0.23307112382132783,0.08216783404350281,0.26234567165374756,0.463878333568573,1.232
N,155,6510,0.29406286906318657,0.23206141630731933,0.08289241790771484,0.2625482678413391,0.4685039222240448,1.24
N,156,6218,0.2952514052669528,0.2307816959938003,0.0833333358168602,0.2638436555862427,0.47297295928001404,1.248
N,157,5957,0.2980953139908498,0.2296824847778457,0.08518518507480621,0.2685810923576355,0.4781144857406616,1.256
N,158,5681,0.30231857193483747,0.22957237767420627,0.08733624219894409,0.27194491028785706,0.49242424964904785,1.264
N,159,5440,0.3070989039660644,0.23003828827111011,0.09053497761487961,0.27491408586502075,0.5,1.272
N,160,5175,0.3128586298953472,0.23202940835798605,0.09243697673082352,0.28021979331970215,0.5090909004211426,1.28
N,161,4925,0.3190076638188516,0.22980966363937538,0.09824561327695847,0.28521740436553955,0.5233644843101501,1.288
N,162,4709,0.32664521578314676,0.2325597295148984,0.10251450538635254,0.286689430475235,0.5402684807777405,1.296
Q,0,8039,0.8614537169824809,0.14736424150789706,0.7488299608230591,0.9145077466964722,1.0,0.0
Q,1,8039,0.6657480404672059,0.17737229913159216,0.516339898109436,0.6201780438423157,0.8520179390907288,0.008
Q,2,8039,0.6059109283035865,0.15377693064184275,0.4978354871273041,0.5546558499336243,0.7562893033027649,0.016
Q,3,8039,0.5419806238391977,0.16358261125350496,0.42586749792099,0.5273311734199524,0.6766467094421387,0.024
Q,4,8039,0.47910376788629166,0.18070818706294245,0.32376396656036377,0.5207546949386597,0.61800217628479,0.032
Q,5,8039,0.41916798569058944,0.18467958934479517,0.24624624848365784,0.4851379990577698,0.5589353442192078,0.04
Q,6,8039,0.36651879346232996,0.18876983017879376,0.20083682239055634,0.42007002234458923,0.5097402334213257,0.048
Q,7,8039,0.3069967598166773,0.18129980261563974,0.15809524059295654,0.33636364340782166,0.43894898891448975,0.056
Q,8,8039,0.24473705418507086,0.156400008500184,0.11702127754688263,0.25479742884635925,0.34487348794937134,0.064
Q,9,8039,0.18403206044783238,0.12400389262747613,0.0892857164144516,0.16417910158634186,0.25466519594192505,0.072
Q,10,8039,0.1387132451631069,0.10982708083966741,0.06481481343507767,0.11331132799386978,0.1878787875175476,0.08
Q,11,8039,0.12797807159578217,0.11528026017309925,0.04333333298563957,0.09259258955717087,0.1909814327955246,0.088
Q,12,8039,0.1353804738407096,0.1301096592408168,0.03395061567425728,0.08627451211214066,0.22428330779075623,0.096
Q,13,8039,0.1441269476384087,0.14245041008343942,0.034839924424886703,0.08771929889917374,0.24013157188892365,0.104
Q,14,8039,0.17751182113418865,0.14954489457634096,0.06360424309968948,0.12318840622901917,0.2602591812610626,0.112
Q,15,8039,0.2265983701948647,0.15441046743128817,0.1034482792019844,0.19256018102169037,0.30612245202064514,0.12
Q,16,8039,0.26708999113466475,0.1622104165734383,0.15126051008701324,0.237726092338562,0.34355828166007996,0.128
Q,17,8039,0.293612195436518,0.1743209901400107,0.16480447351932526,0.27130264043807983,0.37912672758102417,0.136
Q,18,8039,0.3115393985798199,0.1853834967370993,0.1666666716337204,0.30158731341362,0.4104750156402588,0.144
Q,19,8039,0.3259944392365359,0.19380604301742133,0.1734693944454193,0.3241206109523773,0.4372759759426117,0.152
Q,20,8039,0.34167132983698406,0.19859254638316448,0.18000000715255737,0.347517728805542,0.46900585293769836,0.16
Q,21,8039,0.35667466194971204,0.2033805314191151,0.18545454740524292,0.3708820343017578,0.49940404295921326,0.168
Q,22,8039,0.37077731183758567,0.20932170757211493,0.18731562793254852,0.39358288049697876,0.5314757227897644,0.176
Q,23,8039,0.38441404953595154,0.21715373476116412,0.18544194102287292,0.41318681836128235,0.5656008720397949,0.184
Q,24,8039,0.3973133822726423,0.2256749247856032,0.1857379823923111,0.4340175986289978,0.5936508178710938,0.192
Q,25,8039,0.40789870592068783,0.2335914627482974,0.18122977018356323,0.45104894042015076,0.6155398488044739,0.2
Q,26,8039,0.41620413331463907,0.24012268609890122,0.18021202087402344,0.4660087823867798,0.6307471394538879,0.208
Q,27,8039,0.42360329510379247,0.24600668960980296,0.17665615677833557,0.47840532660484314,0.6428571343421936,0.216
Q,28,8039,0.43064224015099856,0.25191533334824656,0.1753731369972229,0.4879724979400635,0.6551339030265808,0.224
Q,29,8039,0.43808147782788986,0.25806560819835156,0.17586207389831543,0.4961538314819336,0.6682927012443542,0.232
Q,30,8039,0.446447638936465,0.2639274471700425,0.1770491749048233,0.505649745464325,0.6823379993438721,0.24
Q,31,8038,0.4563451760793387,0.2699104541551446,0.1814671754837036,0.5141955614089966,0.6981351971626282,0.248
Q,32,8038,0.46705435589355615,0.27525298105564916,0.1872340440750122,0.5244565010070801,0.715410590171814,0.256
Q,33,8038,0.4794635684343126,0.27984097396714147,0.19702602922916412,0.5333333611488342,0.7335600852966309,0.264
Q,34,8037,0.4928129952896539,0.28345127867113556,0.20729365944862366,0.5424242615699768,0.752212405204773,0.272
Q,35,8037,0.5063109075221905,0.2858777964868664,0.22181817889213562,0.549763023853302,0.7700892686843872,0.28
Q,36,8036,0.5198650367026282,0.28643682194979225,0.23880596458911896,0.5596708059310913,0.7871674299240112,0.288
Q,37,8036,0.5327670249160594,0.2855130270418897,0.25514402985572815,0.565055787563324,0.8028391003608704,0.296
Q,38,8036,0.5440150204702864,0.28244496708439343,0.2718120813369751,0.5729926824569702,0.8130530714988708,0.304
Q,39,8035,0.5526502660353388,0.2778706208207423,0.28617364168167114,0.5787671208381653,0.8181818127632141,0.312
Q,40,8035,0.5585710371954873,0.27140853181791813,0.29921260476112366,0.5845070481300354,0.8183279633522034,0.32
Q,41,8034,0.5604381487964306,0.2638700204315682,0.3093220293521881,0.5889512896537781,0.8105436563491821,0.328
Q,42,8033,0.5585248858674315,0.2552254901731289,0.31545740365982056,0.591176450252533,0.7959641218185425,0.336
Q,43,8032,0.5527975897847831,0.24600232279507483,0.3166666626930237,0.5880281925201416,0.7774049043655396,0.344
Q,44,8031,0.5437099181443579,0.23629557789133546,0.31558936834335327,0.5849581956863403,0.754045307636261,0.352
Q,45,8030,0.5317132996640819,0.22659230214748077,0.31168830394744873,0.5758980512619019,0.7278382778167725,0.36
Q,46,8030,0.5174345657134319,0.21654227772300672,0.3054545521736145,0.5633803009986877,0.7001067399978638,0.368
Q,47,8028,0.5017155751764151,0.20686892697107323,0.29967427253723145,0.547722339630127,0.6746411323547363,0.376
Q,48,8027,0.48527460154858343,0.19765185857953954,0.2915129065513611,0.5300546288490295,0.6477987170219421,0.384
Q,49,8025,0.4694131673956029,0.18875474166638687,0.28455284237861633,0.5138461589813232,0.6218181848526001,0.392
Q,50,8025,0.45435368584370317,0.18025534044113475,0.279683381319046,0.49695122241973877,0.5993640422821045,0.4
Q,51,8019,0.44033570534303784,0.17270727016162815,0.2720848023891449,0.47962382435798645,0.5804597735404968,0.408
Q,52,8014,0.4283095462968999,0.16576498952020166,0.26829269528388977,0.4657980501651764,0.5636363625526428,0.416
Q,53,8001,0.4177818425034081,0.16028165957349597,0.26359832286834717,0.4527363181114197,0.5506756901741028,0.424
Q,54,7998,0.4094841389458745,0.15538833506875624,0.2632850110530853,0.44109588861465454,0.5392156839370728,0.432
Q,55,7992,0.40262019035669305,0.15173222232295067,0.260869562625885,0.4321329593658447,0.5300667881965637,0.44
Q,56,7989,0.39732700806600246,0.14907642838091473,0.2578125,0.42424243688583374,0.5228539705276489,0.448
Q,57,7975,0.3928052617107346,0.1472282187184268,0.25517240166664124,0.41813603043556213,0.5167785286903381,0.456
Q,58,7970,0.389774470464788,0.14596726596879356,0.2548387050628662,0.4137931168079376,0.5130718946456909,0.464
Q,59,7964,0.38688991361053027,0.1451455138642008,0.2523076832294464,0.40965092182159424,0.5092127323150635,0.472
Q,60,7959,0.3843598717804668,0.1440775614163306,0.2525951564311981,0.4064602851867676,0.5059523582458496,0.48
Q,61,7950,0.38211665840116593,0.14366699037864536,0.2482517510652542,0.4028571546077728,0.5043859481811523,0.488
Q,62,7947,0.38007517307273675,0.14374476506266023,0.24632352590560913,0.40072202682495117,0.5013812184333801,0.496
Q,63,7945,0.3781808301172283,0.144272004252825,0.24513618648052216,0.39714285731315613,0.5006353259086609,0.504
Q,64,7945,0.37661771090095186,0.14428682595604392,0.24381625652313232,0.396284818649292,0.4988763928413391,0.512
Q,65,7944,0.37509211286534777,0.14479187852841877,0.24014337360858917,0.3950178027153015,0.49756887555122375,0.52
Q,66,7942,0.3735968278310194,0.14526373651320906,0.2378854602575302,0.39411765336990356,0.49679896235466003,0.528
Q,67,7941,0.37219570444676564,0.1461316433410458,0.23529411852359772,0.39329269528388977,0.4962121248245239,0.536
Q,68,7939,0.3708695429743851,0.14664421742317874,0.23297491669654846,0.39080458879470825,0.4950331151485443,0.544
Q,69,7936,0.3696613332379662,0.14755812383511654,0.22909091413021088,0.39175257086753845,0.49597424268722534,0.552
Q,70,7935,0.3684026638589325,0.14817480303986313,0.2271062284708023,0.3897216320037842,0.4945175349712372,0.56
Q,71,7932,0.36733100665073354,0.14906185765006885,0.22491349279880524,0.38935574889183044,0.49462366104125977,0.568
Q,72,7930,0.3663677418713715,0.14929519410895598,0.2229965180158615,0.38830897212028503,0.4938080608844757,0.576
Q,73,7928,0.3654469305022801,0.1498590963672988,0.22258064150810242,0.38698631525039673,0.4938271641731262,0.584
Q,74,7927,0.3646996729912419,0.15074216113569558,0.2199999988079071,0.38643068075180054,0.49288061261177063,0.592
Q,75,7927,0.3639890354524269,0.1510951764653762,0.21709007024765015,0.38434162735939026,0.4924471378326416,0.6
Q,76,7924,0.36302449543568305,0.15097827274919576,0.21666666865348816,0.38333332538604736,0.4909365475177765,0.608
Q,77,7923,0.3619287868066985,0.15149286578185128,0.21568627655506134,0.3818897604942322,0.49130937457084656,0.616
Q,78,7923,0.36147936630044775,0.1520977606851395,0.21532846987247467,0.38148146867752075,0.4907251298427582,0.624
Q,79,7918,0.3611417365276654,0.15224913920920863,0.21472392976284027,0.38062283396720886,0.4904458522796631,0.632
Q,80,7917,0.3607735701589493,0.15293838638871374,0.2143622785806656,0.3798219561576843,0.48924121260643005,0.64
Q,81,7917,0.3604598230896058,0.15299649593619552,0.21290323138237,0.37860962748527527,0.4897260367870331,0.648
Q,82,7917,0.36024372079627875,0.15241990210450113,0.2146957516670227,0.37797245383262634,0.48967888951301575,0.656
Q,83,7913,0.35971870950523105,0.1522078832166037,0.21403509378433228,0.37853774428367615,0.4891461730003357,0.664
Q,84,7909,0.360227754328551,0.15228541303608012,0.2142857164144516,0.378947377204895,0.4885496199131012,0.672
Q,85,7906,0.36073812951262907,0.1522528915012677,0.21612903475761414,0.37993597984313965,0.4894859790802002,0.68
Q,86,7904,0.3615489151394315,0.15243885140730368,0.21548821032047272,0.38148146867752075,0.49053627252578735,0.688
Q,87,7901,0.36307168518141614,0.1532147134024421,0.21724137663841248,0.38297873735427856,0.4910569190979004,0.696
Q,88,7897,0.364900810696629,0.15368372115497186,0.21848739683628082,0.3851761817932129,0.49165740609169006,0.704
Q,89,7894,0.3676718524904945,0.15558384889685467,0.22077922523021698,0.38716354966163635,0.4941451847553253,0.712
Q,90,7889,0.37160572666466607,0.1579616655440468,0.22440944612026215,0.3916349709033966,0.4963289201259613,0.72
Q,91,7882,0.3798443542073101,0.16623493034029002,0.22676579654216766,0.3993399441242218,0.5012048482894897,0.728
Q,92,7871,0.392187326055057,0.1810748615883646,0.23266218602657318,0.40755873918533325,0.5056910514831543,0.736
Q,93,7866,0.407233923009503,0.19279173450457926,0.24469412863254547,0.41971543431282043,0.5126234889030457,0.744
Q,94,7858,0.43005259592129574,0.20734751706627275,0.2616940438747406,0.435982346534729,0.5235204696655273,0.752
Q,95,7851,0.4558241615525217,0.2180808415188219,0.28992629051208496,0.46019628643989563,0.5418719053268433,0.76
Q,96,7836,0.48270414098380576,0.22506608983786042,0.3224637806415558,0.4808080792427063,0.5712810158729553,0.768
Q,97,7822,0.5166255735853656,0.24064572509919419,0.35820895433425903,0.49687498807907104,0.621809720993042,0.776
Q,98,7812,0.5400392678979662,0.2459385101660735,0.3794117569923401,0.5114854574203491,0.6685082912445068,0.784
Q,99,7803,0.5546376393921983,0.2482276539907983,0.39255499839782715,0.5212903022766113,0.7254289984703064,0.792
Q,100,7786,0.5597192702935808,0.24894573485149338,0.4000000059604645,0.5263158082962036,0.7567567825317383,0.8
Q,101,7764,0.5536338561501797,0.2485842902492334,0.40105539560317993,0.5324947834014893,0.7438271641731262,0.808
Q,102,7752,0.54054221004919,0.2546496645743237,0.385185182094574,0.5327869057655334,0.7224959135055542,0.816
Q,103,7737,0.5150798481198251,0.26368899926933004,0.33832335472106934,0.5204461216926575,0.6865342259407043,0.824
Q,104,7722,0.48118696845597236,0.2741784550921958,0.27597954869270325,0.4967845678329468,0.6455108523368835,0.832
Q,105,7689,0.43755363154724447,0.2769849798231355,0.20552147924900055,0.44964027404785156,0.6059049963951111,0.84
Q,106,7666,0.3930153356482485,0.2737385572982694,0.1492537260055542,0.3692307770252228,0.5677655935287476,0.848
Q,107,7631,0.3497621828723184,0.2632371979449511,0.1195652186870575,0.3014354109764099,0.5313807725906372,0.856
Q,108,7590,0.3101490174739208,0.2473378470628823,0.10061919689178467,0.25095057487487793,0.49060773849487305,0.864
Q,109,7538,0.27532462417752523,0.22820070372293932,0.08663729578256607,0.2131519317626953,0.43251532316207886,0.872
Q,110,7475,0.24630819635062376,0.2092849424814285,0.0746268630027771,0.1859649121761322,0.379084974527359,0.88
Q,111,7408,0.22401499792702897,0.19082538570775132,0.07089947164058685,0.1666666716337204,0.34285715222358704,0.888
Q,112,7269,0.2096076395649546,0.17550501114890643,0.07194244861602783,0.1589147299528122,0.31578946113586426,0.896
Q,113,7079,0.20408219501502387,0.16536362563744061,0.07418397814035416,0.16271185874938965,0.29555895924568176,0.904
Q,114,6792,0.2051107892260963,0.16289055766064392,0.07901234924793243,0.1660079061985016,0.29384616017341614,0.912
Q,115,6382,0.21048776345418047,0.1642837599043629,0.08282208442687988,0.17275747656822205,0.30020493268966675,0.92
Q,116,5926,0.21930186746411284,0.16868808735987698,0.08414239436388016,0.1824175864458084,0.3179190754890442,0.928
Q,117,5412,0.22996683879548505,0.1730868995295286,0.08771929889917374,0.19631901383399963,0.3361344635486603,0.936
Q,118,4780,0.240315424516762,0.17702333797012804,0.092373788356781,0.2073170691728592,0.3501199185848236,0.944
Q,119,4063,0.25006232166724357,0.1798103967776272,0.10030394792556763,0.21484375,0.35886213183403015,0.952
Q,120,3424,0.26490428992817733,0.18059992471300146,0.11582569032907486,0.23763440549373627,0.36860671639442444,0.96
Q,121,2763,0.2822322830962475,0.1775268190902695,0.14381271600723267,0.26577043533325195,0.38247862458229065,0.968
Q,122,2181,0.3037287406622296,0.17513448973385604,0.17286431789398193,0.29388943314552307,0.3984198570251465,0.976
Q,123,1686,0.326063139282094,0.1686006228871169,0.20917822420597076,0.32035595178604126,0.4150943458080292,0.984
Q,124,1274,0.3478362449778177,0.16150109344330776,0.2430107593536377,0.3425357937812805,0.4393564462661743,0.992
Q,125,891,0.3738937192072822,0.160577573622157,0.2766439914703369,0.35963115096092224,0.48151952028274536,1.0
Q,126,561,0.4028214108586517,0.16325454329512365,0.30909091234207153,0.39059966802597046,0.5450381636619568,1.008
S,0,2779,0.8959046757153996,0.2142142335164269,0.9004092812538147,0.9754098653793335,1.0,0.0
S,1,2779,0.7802906314620883,0.20177097662847263,0.7371048331260681,0.8339921236038208,0.9078947305679321,0.008
S,2,2779,0.27432194533111065,0.13950991585992645,0.18446601927280426,0.25833332538604736,0.3380281627178192,0.016
S,3,2779,0.09116886507722437,0.1305886612448022,0.0,0.0324324332177639,0.12801484763622284,0.024
S,4,2779,0.15014659017587523,0.1156041554621109,0.07999999821186066,0.11538461595773697,0.18586386740207672,0.032
S,5,2779,0.18502737364675428,0.12239838633067471,0.11811023950576782,0.1549755334854126,0.2128514051437378,0.04
S,6,2779,0.17547799776658113,0.1354518832209417,0.1024390235543251,0.13750000298023224,0.1997084617614746,0.048
S,7,2779,0.20080944532900513,0.1358342524276417,0.13237063586711884,0.17842324078083038,0.2289719581604004,0.056
S,8,2779,0.22540447367655167,0.13466399091457415,0.16190476715564728,0.21686747670173645,0.2574257552623749,0.064
S,9,2779,0.2138046022825789,0.1362187415158306,0.1508379876613617,0.19337016344070435,0.24180327355861664,0.072
S,10,2779,0.21887534688678967,0.14117253551077816,0.15329767763614655,0.19421488046646118,0.24568966031074524,0.08
S,11,2779,0.2436788342647642,0.14412143908582797,0.18305084109306335,0.23188406229019165,0.27699530124664307,0.088
S,12,2779,0.27732628087850625,0.1499029542869515,0.21250000596046448,0.28270041942596436,0.32793521881103516,0.096
S,13,2779,0.3007110472111358,0.15880082282298869,0.22248804569244385,0.3164556920528412,0.36283186078071594,0.104
S,14,2779,0.30342846023903763,0.1626151933866435,0.22448979318141937,0.3202933967113495,0.364705890417099,0.112
S,15,2779,0.3032473036413627,0.1662032854897985,0.22516556084156036,0.31854838132858276,0.3611111044883728,0.12
S,16,2779,0.3068887022288383,0.16972187362306335,0.2279069721698761,0.3222748935222626,0.3660714328289032,0.128
S,17,2779,0.31087550911413975,0.1734237439911366,0.23556582629680634,0.3252427279949188,0.3695652186870575,0.136
S,18,2779,0.3139427259493017,0.17654124923839806,0.2400990128517151,0.32900431752204895,0.3732590675354004,0.144
S,19,2779,0.3177362622498136,0.17894132306152166,0.24222221970558167,0.331877738237381,0.375,0.152
S,20,2779,0.32191411400163233,0.18046264874699736,0.25296443700790405,0.33582088351249695,0.37962964177131653,0.16
S,21,2779,0.32694779733135915,0.18180626727586238,0.2572178542613983,0.3404255211353302,0.38297873735427856,0.168
S,22,2778,0.33087356067291085,0.18205673543207282,0.2684824764728546,0.3446808457374573,0.38818565011024475,0.176
S,23,2777,0.3369424398904643,0.18241521805927696,0.2770562767982483,0.3514644205570221,0.3925233781337738,0.184
S,24,2775,0.3427332710860683,0.18254952847940525,0.2851710915565491,0.35874438285827637,0.40092167258262634,0.192
S,25,2775,0.34944392079919545,0.18278820544545046,0.2928176820278168,0.36925795674324036,0.4110671877861023,0.2
S,26,2775,0.3556466282943582,0.18348964053827022,0.2978142201900482,0.37728938460350037,0.42307692766189575,0.208
S,27,2773,0.36343645026136207,0.18390855559741734,0.29906541109085083,0.39032256603240967,0.43661972880363464,0.216
S,28,2773,0.371773626952067,0.18579027245784646,0.2923832833766937,0.4035087823867798,0.4559585452079773,0.224
S,29,2772,0.38201750510403804,0.18897359086723525,0.28344669938087463,0.41818180680274963,0.4765625,0.232
S,30,2772,0.3934680838423444,0.19354093079817936,0.27272728085517883,0.4357798099517822,0.5,0.24
S,31,2771,0.4066376969339165,0.19865511469631256,0.26520681381225586,0.45519712567329407,0.5286195278167725,0.248
S,32,2770,0.4184071481037071,0.20473777003960386,0.25838926434516907,0.4767676889896393,0.5564853549003601,0.256
S,33,2770,0.428216357656926,0.20876791234212172,0.25292739272117615,0.4964788854122162,0.5746606588363647,0.264
S,34,2768,0.43484139702510965,0.21247923879302125,0.24938271939754486,0.5091575384140015,0.5897436141967773,0.272
S,35,2768,0.43867583338725896,0.21409071932992238,0.2464114874601364,0.5179283022880554,0.599078357219696,0.28
S,36,2766,0.43768230497056587,0.21295008653766806,0.24345549941062927,0.5199999809265137,0.5980861186981201,0.288
S,37,2764,0.4306987287767613,0.20809248589842747,0.2398373931646347,0.5097275972366333,0.5854922533035278,0.296
S,38,2763,0.41713680402694964,0.19848902497207746,0.24336282908916473,0.4861111044883728,0.5632184147834778,0.304
S,39,2761,0.40035277869915326,0.18806981239147047,0.24137930572032928,0.4597701132297516,0.5314960479736328,0.312
S,40,2760,0.38202386741539923,0.1764788037758488,0.2384428232908249,0.4268292784690857,0.4959016442298889,0.32
S,41,2759,0.3646791160218728,0.16585647376771684,0.24318182468414307,0.3947368562221527,0.4658385217189789,0.328
S,42,2758,0.3513674708859937,0.15943827048478867,0.24802111089229584,0.37090909481048584,0.43621399998664856,0.336
S,43,2757,0.344452538577712,0.16312420107409684,0.25139665603637695,0.35438597202301025,0.4126213490962982,0.344
S,44,2757,0.3432651904690639,0.17212604993328834,0.2532299757003784,0.34210526943206787,0.3970588147640228,0.352
S,45,2755,0.34146243275351107,0.18017494338569146,0.25641027092933655,0.3319999873638153,0.38743454217910767,0.36
S,46,2753,0.33490756956586065,0.1843478157096074,0.24938271939754486,0.3211382031440735,0.3768472969532013,0.368
S,47,2750,0.32767084734268825,0.189420190828349,0.23999999463558197,0.31333333253860474,0.3634895086288452,0.376
S,48,2748,0.3160050879195305,0.1765776242496903,0.23140496015548706,0.30612245202064514,0.35459184646606445,0.384
S,49,2745,0.30401109937189963,0.16378675655514735,0.22633744776248932,0.30215826630592346,0.3498098850250244,0.392
S,50,2738,0.29885001530019745,0.15682511494306073,0.22022472321987152,0.29921260476112366,0.3442623019218445,0.4
S,51,2731,0.29856784077603693,0.15255355572325494,0.22440087795257568,0.2977941036224365,0.34210526943206787,0.408
S,52,2708,0.2967598848911539,0.1448494888756875,0.22602739930152893,0.2977527976036072,0.34299516677856445,0.416
S,53,2674,0.29455348235717294,0.14040762080372773,0.22991690039634705,0.2970297038555145,0.3432203531265259,0.424
S,54,2634,0.29302398648909267,0.13900330306384276,0.227436825633049,0.2978723347187042,0.340807169675827,0.432
S,55,2590,0.2898756178444733,0.13482688994745326,0.23023255169391632,0.2954545319080353,0.34002870321273804,0.44
S,56,2542,0.2846903987300313,0.1301089821874342,0.22847682237625122,0.2944444417953491,0.3372093141078949,0.448
S,57,2507,0.2809796821685247,0.12759538878106924,0.22846442461013794,0.29032257199287415,0.3333333432674408,0.456
S,58,2489,0.27847984217293636,0.12743140694630326,0.22636103630065918,0.28837209939956665,0.3318965435028076,0.464
S,59,2471,0.2783891821115416,0.12513532334054117,0.23105360567569733,0.28853756189346313,0.3333333432674408,0.472
S,60,2462,0.2775134324931383,0.12417524404229936,0.22520661354064941,0.2916666567325592,0.3359375,0.48
S,61,2449,0.28154075536009865,0.12620372833847485,0.22695034742355347,0.2956521809101105,0.34117648005485535,0.488
S,62,2441,0.28902259916647055,0.12820779701711738,0.2342192679643631,0.30203044414520264,0.34982332587242126,0.496
S,63,2437,0.29743904712471225,0.13198901909726668,0.2442748099565506,0.31020408868789673,0.35775861144065857,0.504
S,64,2425,0.30359179052418656,0.1352378935239552,0.24832214415073395,0.31448763608932495,0.36265432834625244,0.512
S,65,2417,0.30607362049965076,0.13882427552414925,0.2542372941970825,0.31578946113586426,0.3609958589076996,0.52
S,66,2404,0.30658016955912326,0.14271825017582948,0.2549019753932953,0.3136363625526428,0.35652172565460205,0.528
S,67,2393,0.305596935354964,0.14151859214383358,0.25390625,0.31120333075523376,0.35227271914482117,0.536
S,68,2376,0.30394620412289597,0.14276316759048266,0.25095057487487793,0.30844154953956604,0.350210964679718,0.544
S,69,2359,0.3042798772376882,0.14266454410340892,0.2522522509098053,0.3076923191547394,0.3499999940395355,0.552
S,70,2341,0.3016675786458955,0.14012862561812497,0.25082507729530334,0.306772917509079,0.3501945436000824,0.56
S,71,2318,0.3016088030451099,0.13806745556793704,0.25090909004211426,0.3080357015132904,0.35078534483909607,0.568
S,72,2305,0.3008427606414753,0.13629226437000708,0.25238096714019775,0.30805686116218567,0.3519313335418701,0.576
S,73,2278,0.29647848367230284,0.12898626021018933,0.2537313401699066,0.30859375,0.3498622477054596,0.584
S,74,2264,0.2944412573008072,0.1267470139822425,0.25206610560417175,0.30739298462867737,0.3461538553237915,0.592
S,75,2248,0.2943083479904381,0.1255511997584285,0.25287356972694397,0.30627307295799255,0.34632036089897156,0.6
S,76,2237,0.29523284671970534,0.12408521059461086,0.25242719054222107,0.3063829839229584,0.3464912176132202,0.608
S,77,2228,0.2970483019206877,0.12941702436108482,0.2535211145877838,0.3071160912513733,0.3478260934352875,0.616
S,78,2216,0.29957090121935986,0.1335886379859927,0.25339367985725403,0.30901288986206055,0.34736841917037964,0.624
S,79,2211,0.3025374293073756,0.13545463127605478,0.2572614252567291,0.30894309282302856,0.3499999940395355,0.632
S,80,2208,0.3036535948344533,0.1363162884197994,0.2567567527294159,0.311557799577713,0.3534482717514038,0.64
S,81,2201,0.3047536015499981,0.13794675362094613,0.25757575035095215,0.31380751729011536,0.3558558523654938,0.648
S,82,2195,0.3060156626094362,0.13657098628599057,0.2574257552623749,0.3140496015548706,0.35779815912246704,0.656
S,83,2185,0.31092289982766375,0.143608220032104,0.25912410020828247,0.3181818127632141,0.3629032373428345,0.664
S,84,2183,0.3212619195232553,0.1556602916095549,0.2572614252567291,0.32270917296409607,0.3781512677669525,0.672
S,85,2177,0.34408050366785575,0.18265236344939256,0.25884243845939636,0.3304597735404968,0.4134615361690521,0.68
S,86,2172,0.38112633226526826,0.22328911572426477,0.2599118947982788,0.33956387639045715,0.4717741906642914,0.688
S,87,2164,0.4183213193162797,0.2636760161574975,0.25,0.3505154550075531,0.5366666913032532,0.696
S,88,2157,0.4284059831832212,0.2826840937210662,0.22772277891635895,0.3571428656578064,0.6029411554336548,0.704
S,89,2150,0.4054759510999632,0.29735784839035595,0.1590106040239334,0.3333333432674408,0.5882353186607361,0.712
S,90,2138,0.3634338536381659,0.302567149896005,0.1181434616446495,0.2881355881690979,0.5335968136787415,0.72
S,91,2134,0.3089418941770524,0.2806551853346339,0.09603340178728104,0.23505976796150208,0.4199134111404419,0.728
S,92,2120,0.255678291497796,0.23652181141026535,0.0934959352016449,0.17933130264282227,0.3303167521953583,0.736
S,93,2106,0.22191408679511926,0.19642293435448557,0.0962962955236435,0.1651090383529663,0.2969924807548523,0.744
S,94,2091,0.21358012501005616,0.17265650658730544,0.1068965494632721,0.17012448608875275,0.2838541567325592,0.752
S,95,2072,0.2175059559315436,0.15279100574991647,0.1230769231915474,0.1890547275543213,0.2788461446762085,0.76
S,96,2058,0.22153210036449344,0.1378949302503141,0.13592232763767242,0.1991869956254959,0.28070175647735596,0.768
S,97,2044,0.22679283319725957,0.12768079313992292,0.14917127788066864,0.20942407846450806,0.28215768933296204,0.776
S,98,2028,0.2373400865574101,0.12645181211723977,0.16265060007572174,0.22047244012355804,0.2943722903728485,0.784
S,99,2016,0.2515657093259968,0.12864833955115443,0.17479674518108368,0.23949579894542694,0.31329113245010376,0.792
S,100,2004,0.2652294844013226,0.12791982896652762,0.1835206001996994,0.26696833968162537,0.3317756950855255,0.8
S,101,1986,0.2780625922068455,0.13171037694439258,0.19693094491958618,0.28828829526901245,0.3442623019218445,0.808
S,102,1947,0.28954888341310286,0.13236262434592272,0.2164948433637619,0.30454546213150024,0.3487544357776642,0.816
S,103,1896,0.2962949331929634,0.1318316517754748,0.23630136251449585,0.31075698137283325,0.35483869910240173,0.824
S,104,1807,0.29664688613577567,0.12832236128964264,0.25,0.3147410452365875,0.3541666567325592,0.832
S,105,1656,0.29376113994478964,0.12973433739751788,0.24904213845729828,0.31330472230911255,0.3537735939025879,0.84
S,106,1505,0.2919314653065018,0.13704393584111768,0.23381294310092926,0.3122529685497284,0.3537117838859558,0.848
S,107,1360,0.28895541384853834,0.1364811805030239,0.21543408930301666,0.31221720576286316,0.353658527135849,0.856
S,108,1237,0.28529849444706484,0.14191772186881316,0.18897637724876404,0.3099173605442047,0.3571428656578064,0.864
S,109,1146,0.2854135973871902,0.14870445126164109,0.18269230425357819,0.3122362792491913,0.35919541120529175,0.872
S,110,1090,0.2855070334519559,0.155704959906122,0.16607142984867096,0.3122362792491913,0.36199095845222473,0.88
S,111,1069,0.28897836730990584,0.1586341088630569,0.1733333319425583,0.31578946113586426,0.3700440526008606,0.888
S,112,1050,0.29617323022424463,0.1595786996377583,0.18150684237480164,0.3181818127632141,0.3814432919025421,0.896
S,113,1033,0.306825410056046,0.16935822654790011,0.19711539149284363,0.32300883531570435,0.38749998807907104,0.904
S,114,1028,0.3142242912947769,0.17445336983075863,0.20618556439876556,0.32508835196495056,0.400943398475647,0.912
S,115,1017,0.3185015708840413,0.18003441992839597,0.20469798147678375,0.3280632495880127,0.4072398245334625,0.92
S,116,1014,0.3216710270433439,0.18387889155863155,0.20502091944217682,0.3292181193828583,0.42170819640159607,0.928
S,117,1008,0.32595893994942937,0.1847151577721613,0.20783132314682007,0.3317756950855255,0.427807480096817,0.936
S,118,1003,0.3334929312979533,0.1838276147636476,0.21328671276569366,0.3333333432674408,0.44999998807907104,0.944
S,119,997,0.34207598636778763,0.1948038686937869,0.20512820780277252,0.3361702263355255,0.4647887349128723,0.952
S,120,989,0.3450377236423624,0.19846147830048513,0.20392748713493347,0.3347107470035553,0.47736626863479614,0.96
S,121,979,0.34797726381121563,0.2011466903326247,0.20958083868026733,0.3333333432674408,0.5,0.968
S,122,965,0.35294602852063783,0.19999202366832272,0.21725240349769592,0.3321428596973419,0.5243902206420898,0.976
S,123,960,0.3598665819517919,0.2128636950971139,0.20983606576919556,0.33451956510543823,0.5372549295425415,0.984
S,124,949,0.3600391849401447,0.21500956404834956,0.19711539149284363,0.3349514603614807,0.5458715558052063,0.992
S,125,934,0.3512678150748445,0.2113457130907589,0.18473894894123077,0.328125,0.5290102362632751,1.0
S,126,922,0.34257039882610363,0.20276797862801285,0.18793503940105438,0.328000009059906,0.5023255944252014,1.008
S,127,906,0.3347478724957524,0.1886122057449599,0.20192307233810425,0.3263157904148102,0.4714285731315613,1.016
S,128,890,0.324771718008789,0.17799624114874762,0.198369562625885,0.3232323229312897,0.45077720284461975,1.024
S,129,871,0.31904347057814625,0.17717359763563717,0.18974359333515167,0.3255814015865326,0.42809364199638367,1.032
S,130,852,0.31326143010579566,0.16847371441247336,0.20292887091636658,0.32568806409835815,0.41258740425109863,1.04
S,131,831,0.3035099065283181,0.1611274605773612,0.20083682239055634,0.3227207064628601,0.3911290466785431,1.048
S,132,799,0.29499894284523176,0.15742305747986354,0.1845637559890747,0.3154121935367584,0.3766816258430481,1.056
S,133,766,0.2883888632983125,0.14538755048113355,0.19137930870056152,0.31196582317352295,0.36915886402130127,1.064
S,134,734,0.2826095244305447,0.14383694916637255,0.17454545199871063,0.30917873978614807,0.3598130941390991,1.072
S,135,696,0.282301519823464,0.14381030131684774,0.18737271428108215,0.3081481456756592,0.35323384404182434,1.08
S,136,667,0.27910225856015974,0.1356208426899517,0.18852458894252777,0.3031359016895294,0.35222673416137695,1.088
S,137,651,0.2792371265052284,0.13860386365461522,0.1875,0.3011152446269989,0.3480392098426819,1.096
S,138,628,0.2785587215063512,0.1363252977749215,0.19109947979450226,0.30434781312942505,0.3476394712924957,1.104
S,139,613,0.2786733656878573,0.1395739657493046,0.19711539149284363,0.30434781312942505,0.3483146131038666,1.112
S,140,593,0.28027611789348555,0.13322373923963285,0.20000000298023224,0.302325576543808,0.34873950481414795,1.12
S,141,581,0.2803618434629052,0.12861551521565726,0.20481927692890167,0.30612245202064514,0.3488371968269348,1.128
S,142,565,0.2830802413303224,0.13179519312396407,0.21708184480667114,0.3095238208770752,0.34517765045166016,1.136
S,143,552,0.2854128053518977,0.13332621156931324,0.21917808055877686,0.3085501790046692,0.3527131676673889,1.144
S,144,532,0.2905440042425591,0.13160651415125274,0.2265625,0.30971992015838623,0.35467979311943054,1.152
S,145,523,0.29305171001396263,0.1392109773573677,0.22868217527866364,0.31178706884384155,0.35384616255760193,1.16
S,146,513,0.28947869877078614,0.13009612135737567,0.23045267164707184,0.31196582317352295,0.3540855944156647,1.168
S,147,495,0.2864726591671845,0.12731510031168972,0.22887323796749115,0.31086140871047974,0.3513513505458832,1.176
S,148,492,0.28982336914599344,0.13319927745970064,0.23999999463558197,0.31147539615631104,0.35353535413742065,1.184
S,149,485,0.2933240172904484,0.14061267511569012,0.2378854602575302,0.31128403544425964,0.35384616255760193,1.192
S,150,474,0.2983108960516468,0.14692652636587483,0.24577860534191132,0.3136289119720459,0.3568281829357147,1.2
S,151,468,0.30212124970017207,0.14564262805122857,0.24886877834796906,0.3154362440109253,0.3592592477798462,1.208
S,152,460,0.3028470508622653,0.15118736897841156,0.25670498609542847,0.31489360332489014,0.3553299605846405,1.216
S,153,453,0.29959990435318967,0.14419386918333943,0.25581395626068115,0.31558936834335327,0.35772356390953064,1.224
S,154,445,0.29834211457604437,0.13211286638610487,0.25702810287475586,0.3144104778766632,0.35779815912246704,1.232
S,155,435,0.2995136248718562,0.13374750935079296,0.2523961663246155,0.31854838132858276,0.3562231659889221,1.24
S,156,431,0.30116539994760344,0.13108468896959158,0.2578125,0.31578946113586426,0.3571428656578064,1.248
S,157,430,0.3038173289493073,0.13284087462074307,0.2549999952316284,0.3163841664791107,0.3581395447254181,1.256
S,158,424,0.3063935073189227,0.14640865276442147,0.26072606444358826,0.3151862323284149,0.3586497902870178,1.264
S,159,418,0.30528743848489803,0.14850662004430057,0.25342464447021484,0.3174603283405304,0.35885167121887207,1.272
S,160,417,0.3020299252890926,0.12881774870918283,0.26171875,0.3180076479911804,0.3585657477378845,1.28
S,161,413,0.2994890554918576,0.1265782784457364,0.2651006579399109,0.3185840845108032,0.3571428656578064,1.288
S,162,408,0.2998259805540061,0.12572115691651686,0.2631579041481018,0.31660231947898865,0.3553299605846405,1.296
S,163,405,0.3036162879128285,0.1348780606217699,0.25757575035095215,0.3186274468898773,0.3543689250946045,1.304
S,164,405,0.3106375074065808,0.1471819792669563,0.26249998807907104,0.3176470696926117,0.36274510622024536,1.312
S,165,395,0.31084542126288706,0.148947343102731,0.2668810188770294,0.3186274468898773,0.36199095845222473,1.32
S,166,390,0.3101232933692443,0.147536702963504,0.260450154542923,0.3195020854473114,0.35849055647850037,1.328
S,167,386,0.3069900455402085,0.13696512791478854,0.2629757821559906,0.3198198080062866,0.35573121905326843,1.336
S,168,383,0.306428777900167,0.13789681850066837,0.25951558351516724,0.3171806037425995,0.3607305884361267,1.344
S,169,381,0.30618360331722017,0.14302832199637988,0.2619808316230774,0.31674209237098694,0.3581395447254181,1.352
S,170,378,0.310383637452981,0.15685788554419866,0.2587859332561493,0.3180076479911804,0.3623853325843811,1.36
S,171,375,0.31084114441896477,0.1522143212068611,0.265625,0.321739137172699,0.3619047701358795,1.368
S,172,371,0.31031591988437257,0.14350720327133198,0.27203065156936646,0.3190661370754242,0.36036035418510437,1.376
S,173,370,0.3054597897102704,0.1353966351966899,0.2636655867099762,0.32158589363098145,0.3612334728240967,1.384
S,174,368,0.3039310057369142,0.13186883972079835,0.2602739632129669,0.3189964294433594,0.3581395447254181,1.392
S,175,365,0.308038406642409,0.13431508598439443,0.26499998569488525,0.3214285671710968,0.3612334728240967,1.4
S,176,362,0.3122527958768631,0.1357837774556582,0.26511627435684204,0.32211539149284363,0.3665158450603485,1.408
S,177,360,0.3140196246373105,0.13358205396447215,0.2673267424106598,0.3219178020954132,0.3663366436958313,1.416
S,178,357,0.31689086057642263,0.14148106778090358,0.27303755283355713,0.322429895401001,0.3611111044883728,1.424
S,179,352,0.32234255752303975,0.14575226035156977,0.28070175647735596,0.3240000009536743,0.36213991045951843,1.432
S,180,347,0.31960199815180873,0.13409277911461503,0.28327643871307373,0.32926830649375916,0.3658536672592163,1.44
S,181,343,0.31714443331339964,0.13650715562181667,0.27819550037384033,0.3252032399177551,0.36283186078071594,1.448
S,182,341,0.31749746504941645,0.1364453338312029,0.2766798436641693,0.3252032399177551,0.36538460850715637,1.456
S,183,338,0.31783145088592224,0.13094472526048956,0.27906978130340576,0.3245614171028137,0.3644859790802002,1.464
S,184,335,0.31814741738585395,0.11792051769326511,0.28015562891960144,0.3253012001514435,0.36178863048553467,1.472
S,185,328,0.3232256637505687,0.11750404233964673,0.2871621549129486,0.32863849401474,0.37037035822868347,1.48
S,186,325,0.3245508619125646,0.11657226885580337,0.2851710915565491,0.3303571343421936,0.3686440587043762,1.488
V,0,7236,0.6074826890198118,0.4241135891329717,0.008620689623057842,0.8267716765403748,1.0,0.0
V,1,7236,0.5964103789010873,0.4024137755521096,0.06876790523529053,0.8180722594261169,0.9497400522232056,0.008
V,2,7236,0.5192969189334165,0.3263657471640657,0.16639208793640137,0.5830618739128113,0.8132820129394531,0.016
V,3,7236,0.4198419950660364,0.2832716674541278,0.18490566313266754,0.31849315762519836,0.6692606806755066,0.024
V,4,7236,0.37479038527317116,0.2824529276418722,0.1678321659564972,0.30000001192092896,0.5488505959510803,0.032
V,5,7236,0.36658403105243736,0.2738559862322205,0.1425287425518036,0.32481202483177185,0.5049505233764648,0.04
V,6,7236,0.3668252188178418,0.26063945456501353,0.1289355307817459,0.354463130235672,0.5120550990104675,0.048
V,7,7236,0.35875018588232516,0.23785795260078713,0.1251908391714096,0.3824200928211212,0.5111441016197205,0.056
V,8,7236,0.3397792135942397,0.20777490846682195,0.13210226595401764,0.3558352291584015,0.5046082735061646,0.064
V,9,7236,0.31996974257535493,0.20020892998079026,0.1425641030073166,0.29782360792160034,0.4842657446861267,0.072
V,10,7236,0.3126186024880391,0.2164645874374678,0.1460905373096466,0.24900662899017334,0.4903581142425537,0.08
V,11,7236,0.31698218841239106,0.22971015480739937,0.13636364042758942,0.24275362491607666,0.5087336301803589,0.088
V,12,7236,0.32206153148939876,0.23888081128431216,0.12217194586992264,0.24517905712127686,0.5254629850387573,0.096
V,13,7236,0.32551014525357647,0.24911589713659466,0.1072874516248703,0.24629418551921844,0.5343383550643921,0.104
V,14,7235,0.32807149204617636,0.2602476910882466,0.0939597338438034,0.24188129603862762,0.5566149950027466,0.112
V,15,7235,0.33140950120143003,0.2713701807136069,0.08602150529623032,0.2366071492433548,0.5956632494926453,0.12
V,16,7235,0.33517840838524154,0.2814314034675377,0.07613168656826019,0.2328358143568039,0.6159420013427734,0.128
V,17,7235,0.33879059832202013,0.2915918596133032,0.06822612136602402,0.22873562574386597,0.6318471431732178,0.136
V,18,7235,0.342325088430039,0.3020791783317156,0.059183672070503235,0.22469410300254822,0.6485260725021362,0.144
V,19,7235,0.3460038550034598,0.3131348065934128,0.04967602714896202,0.22318339347839355,0.6657894849777222,0.152
V,20,7235,0.3497119104920107,0.3235937040645404,0.04056795313954353,0.22058823704719543,0.6785714030265808,0.16
V,21,7235,0.3537323852393901,0.33340870588931193,0.03448275849223137,0.22093023359775543,0.6930171251296997,0.168
V,22,7235,0.35824392375612857,0.3425838455578178,0.026915114372968674,0.22067594528198242,0.7104622721672058,0.176
V,23,7235,0.36308443259026885,0.3498133715261971,0.02254098281264305,0.22116528451442719,0.7266949415206909,0.184
V,24,7235,0.36841651930263924,0.3547654244048683,0.02002503164112568,0.2226487547159195,0.7372353672981262,0.192
V,25,7235,0.373787871523311,0.35697538270023194,0.020408162847161293,0.23483365774154663,0.7465373873710632,0.2
V,26,7235,0.3790075109770995,0.356327361435505,0.026369167491793633,0.2492581605911255,0.7516005039215088,0.208
V,27,7234,0.38432599064301615,0.3524134483803397,0.03695150092244148,0.2699167728424072,0.7465116381645203,0.216
V,28,7233,0.3893515817405549,0.346323671738654,0.049751244485378265,0.29139071702957153,0.7413333058357239,0.224
V,29,7233,0.394340763140272,0.3381502221794055,0.0634920671582222,0.31123387813568115,0.7326607704162598,0.232
V,30,7233,0.3993079499449867,0.3280634748690753,0.08173076808452606,0.3236607015132904,0.7207207083702087,0.24
V,31,7231,0.4042428708746196,0.31723149104315085,0.10504201799631119,0.33563217520713806,0.7091194987297058,0.248
V,32,7231,0.40833983855291606,0.30564785876183165,0.13223139941692352,0.34585490822792053,0.6976743936538696,0.256
V,33,7231,0.41213220703004905,0.29415269515130305,0.15800416469573975,0.3469387888908386,0.688829779624939,0.264
V,34,7229,0.4138112916782288,0.2822449970107823,0.18003913760185242,0.3461962640285492,0.6734007000923157,0.272
V,35,7226,0.41393130685406676,0.2702573799835918,0.19474835693836212,0.3448626697063446,0.6567164063453674,0.28
V,36,7226,0.4128152914111499,0.2580182048345991,0.20484581589698792,0.34186047315597534,0.642241358757019,0.288
V,37,7226,0.4103525208081392,0.24566895456105187,0.2119460552930832,0.33641618490219116,0.6237761974334717,0.296
V,38,7225,0.40688194441794384,0.2335885849370535,0.21602433919906616,0.3343949019908905,0.6040892004966736,0.304
V,39,7216,0.40293878281851425,0.22207972078335173,0.21935483813285828,0.32741934061050415,0.5853269696235657,0.312
V,40,7211,0.399273834720661,0.2119657270999995,0.2222222238779068,0.3263157904148102,0.5706806182861328,0.32
V,41,7204,0.3958236232697701,0.2031421678337582,0.22663551568984985,0.3263041079044342,0.5593869686126709,0.328
V,42,7197,0.3921164005972766,0.19603204227690404,0.2302771806716919,0.3256351053714752,0.5517711043357849,0.336
V,43,7185,0.38953841677273865,0.19058215056750608,0.23399999737739563,0.3235294222831726,0.546044111251831,0.344
V,44,7178,0.38745782919124666,0.1867136770937227,0.23540489375591278,0.3238312304019928,0.5403329133987427,0.352
V,45,7160,0.3852211900261574,0.18294261306868906,0.2376873642206192,0.3199999928474426,0.5364647507667542,0.36
V,46,7144,0.3836950355413821,0.17938941312595777,0.23846153914928436,0.3201219439506531,0.5323660969734192,0.368
V,47,7128,0.3828672285150688,0.17607986653626548,0.2410714328289032,0.3206349313259125,0.5300896167755127,0.376
V,48,7112,0.3819495255863624,0.17266612159872993,0.24193547666072845,0.3216560482978821,0.5265306234359741,0.384
V,49,7097,0.38175950606135217,0.17015501973052755,0.24485597014427185,0.3216560482978821,0.5240506529808044,0.392
V,50,7083,0.38186999757082685,0.16881271865972503,0.2460496574640274,0.32318106293678284,0.5219206809997559,0.4
V,51,7059,0.3821366456630859,0.16789818391527986,0.24817518889904022,0.32485324144363403,0.5196950435638428,0.408
V,52,7035,0.3830102144313583,0.16692153390327716,0.24845996499061584,0.3249714970588684,0.5188679099082947,0.416
V,53,7019,0.38390384958907037,0.1675291442715454,0.2509225010871887,0.32536765933036804,0.5182679295539856,0.424
V,54,7009,0.38576410277463924,0.1689807183481943,0.2511848211288452,0.3279569745063782,0.5192069411277771,0.432
V,55,6981,0.387812516554593,0.17057827130469208,0.2532637119293213,0.32961782813072205,0.5193992257118225,0.44
V,56,6963,0.3896116911866061,0.17246498731070828,0.25479450821876526,0.32807570695877075,0.5203562378883362,0.448
V,57,6937,0.39124656120293444,0.17427671294364508,0.2552204132080078,0.3298968970775604,0.5208333134651184,0.456
V,58,6921,0.39176856476247107,0.1752626105744654,0.2561797797679901,0.3299388885498047,0.5193049907684326,0.464
V,59,6903,0.3913364809666325,0.1768507026807255,0.25462013483047485,0.3280254900455475,0.5193236470222473,0.472
V,60,6884,0.3902701097242924,0.1779757898269112,0.25447314977645874,0.32573288679122925,0.5183727145195007,0.48
V,61,6864,0.38811195926256176,0.17767309083183236,0.2540322542190552,0.32367971539497375,0.5172839760780334,0.488
V,62,6853,0.3860765493856236,0.17692732106612144,0.2532188892364502,0.3227722644805908,0.517067015171051,0.496
V,63,6822,0.38472628006105464,0.17666222303747586,0.251655638217926,0.3206896483898163,0.5155038833618164,0.504
V,64,6806,0.38469898006655745,0.17636986785032924,0.25248071551322937,0.32034632563591003,0.5161725282669067,0.512
V,65,6785,0.38470219208844497,0.1755071779705501,0.2519480586051941,0.3191153109073639,0.515999972820282,0.52
V,66,6756,0.38422017497280164,0.1744585970145287,0.2518518567085266,0.3189964294433594,0.5164076089859009,0.528
V,67,6727,0.3820637779998281,0.17250612925045283,0.25177305936813354,0.3168567717075348,0.5147849321365356,0.536
V,68,6711,0.3790914289930991,0.1709950169842617,0.2506203353404999,0.31536388397216797,0.5124653577804565,0.544
V,69,6688,0.37665216090841636,0.16930279868814993,0.25,0.3137255012989044,0.5115995407104492,0.552
V,70,6662,0.3755825047366683,0.1702658313161198,0.2494279146194458,0.31213873624801636,0.511700451374054,0.56
V,71,6640,0.37555792307711194,0.17053988009837776,0.2488986849784851,0.3123359680175781,0.5135135054588318,0.568
V,72,6618,0.3760784386893105,0.17092512051970915,0.249417245388031,0.3124300241470337,0.5147392153739929,0.576
V,73,6584,0.3771828319288944,0.17242392750564609,0.24946236610412598,0.3138357698917389,0.5177724957466125,0.584
V,74,6554,0.3775133088956933,0.17469485725544043,0.2496863305568695,0.3128834366798401,0.5158102512359619,0.592
V,75,6521,0.37750248218942395,0.175582050736441,0.24899598956108093,0.31432193517684937,0.5188679099082947,0.6
V,76,6487,0.3777756049421649,0.17802686340775198,0.25,0.31289640069007874,0.5223880410194397,0.608
V,77,6421,0.3790282258757237,0.17994286909064983,0.24879227578639984,0.31317204236984253,0.5273069739341736,0.616
V,78,6379,0.3792291887351504,0.18125164914478462,0.24940048158168793,0.3127147853374481,0.5273492336273193,0.624
V,79,6307,0.3792105789774173,0.18082946607185707,0.2505643367767334,0.31397172808647156,0.5256410241127014,0.632
V,80,6256,0.37911770101393993,0.17980086350118296,0.25099602341651917,0.31390976905822754,0.5264586210250854,0.64
V,81,6193,0.37930341063020095,0.1784246008757385,0.25173211097717285,0.31511253118515015,0.5234806537628174,0.648
V,82,6141,0.3793903825408919,0.17809921856753924,0.2524038553237915,0.3161904811859131,0.518610417842865,0.656
V,83,6089,0.3807802378273947,0.17902695188263704,0.2539682686328888,0.31736525893211365,0.518417477607727,0.664
V,84,6039,0.3828707020320717,0.1813473258817278,0.2538975477218628,0.3187429904937744,0.5189393758773804,0.672
V,85,5993,0.38634515554268406,0.18524776538103999,0.2555204927921295,0.3207547068595886,0.5208613872528076,0.68
V,86,5935,0.3898763162286155,0.18910110716196804,0.2558635473251343,0.3212719261646271,0.5212636590003967,0.688
V,87,5889,0.3930978333628674,0.19138578345474527,0.2571428716182709,0.3229508101940155,0.5241301655769348,0.696
V,88,5829,0.39660883746574044,0.19482108240965765,0.2584269642829895,0.32381996512413025,0.5258855819702148,0.704
V,89,5773,0.4003791465020208,0.19891211037352635,0.25879916548728943,0.32438015937805176,0.5279255509376526,0.712
V,90,5710,0.4053604208087082,0.20512292502234916,0.26075950264930725,0.3258196711540222,0.5315789580345154,0.72
V,91,5644,0.40968167244644493,0.21010045824778667,0.2607204020023346,0.32671958208084106,0.5349143743515015,0.728
V,92,5573,0.41186084124720385,0.2123763005386689,0.26221078634262085,0.32614555954933167,0.5390155911445618,0.736
V,93,5505,0.4117694498117604,0.21134908126139268,0.26306620240211487,0.3260188102722168,0.5383177399635315,0.744
V,94,5430,0.4103237228998897,0.20964948484335594,0.261904776096344,0.3262910842895508,0.5379112958908081,0.752
V,95,5372,0.4090836023082624,0.20504110524024852,0.26293104887008667,0.32756632566452026,0.5360443592071533,0.76
V,96,5317,0.40835862114767335,0.20278046066016092,0.262948215007782,0.32758620381355286,0.5323475003242493,0.768
V,97,5256,0.4091269956223732,0.20257564644287296,0.26383763551712036,0.3287671208381653,0.5286506414413452,0.776
V,98,5187,0.40822352136365697,0.20050636349992068,0.26436781883239746,0.3301204741001129,0.5252174139022827,0.784
V,99,5112,0.4061067037577963,0.19697589492561113,0.2633587718009949,0.3298850655555725,0.5187032222747803,0.792
V,100,5015,0.4042428864758547,0.19475334504442146,0.26241135597229004,0.32809773087501526,0.5164835453033447,0.8
V,101,4924,0.4043108049045702,0.1964216985067579,0.26213592290878296,0.32884398102760315,0.5118279457092285,0.808
V,102,4833,0.40404960799473016,0.19695730339303585,0.2628774344921112,0.33066362142562866,0.5122520327568054,0.816
V,103,4735,0.4029830122030209,0.1958859604388985,0.26201921701431274,0.3302919566631317,0.5081148743629456,0.824
V,104,4628,0.4012866468899686,0.1980324812761475,0.2618453800678253,0.3263888955116272,0.5051546096801758,0.832
V,105,4506,0.39959238479810916,0.19902208473694288,0.258805513381958,0.324210524559021,0.5066666603088379,0.84
V,106,4385,0.398443238245867,0.2005605517248565,0.25879916548728943,0.3228840231895447,0.5089086890220642,0.848
V,107,4251,0.3974112359692096,0.20350753882988948,0.25567010045051575,0.32148149609565735,0.5079365372657776,0.856
V,108,4146,0.39292780658807713,0.20376226416913112,0.254004567861557,0.32018038630485535,0.5025553703308105,0.864
V,109,4030,0.3869915131277869,0.20096995155378558,0.25167039036750793,0.3165322542190552,0.5014792680740356,0.872
V,110,3942,0.38300163475257915,0.20006913496365358,0.24758842587471008,0.3151308298110962,0.48974359035491943,0.88
V,111,3854,0.3784718138620559,0.1984558021677833,0.2437722384929657,0.31270357966423035,0.48022598028182983,0.888
V,112,3733,0.37320437805406914,0.19305730351659056,0.2427007257938385,0.31086957454681396,0.47229552268981934,0.896
V,113,3623,0.3670001154680786,0.18750836474666716,0.24375000596046448,0.30994153022766113,0.46268656849861145,0.904
V,114,3518,0.3619731344361252,0.1820405100136549,0.24137930572032928,0.3082311749458313,0.4534606337547302,0.912
V,115,3410,0.3609005563632965,0.17940646965926013,0.24129930138587952,0.3102409541606903,0.45249998569488525,0.92
V,116,3299,0.36260168914798624,0.17987982035667452,0.24291497468948364,0.3125748634338379,0.4530201256275177,0.928
V,117,3203,0.3649708633020327,0.18181262365886078,0.24538259208202362,0.31338027119636536,0.4570552110671997,0.936
V,118,3099,0.3669325351944538,0.18364565636347482,0.24493926763534546,0.3147512972354889,0.46000000834465027,0.944
V,119,3012,0.3669845190746116,0.1841470849867083,0.24539877474308014,0.3154362440109253,0.4545454680919647,0.952
V,120,2918,0.3663275349764581,0.1853536266797854,0.24705882370471954,0.3163265287876129,0.4482758641242981,0.96
V,121,2838,0.3658033338770168,0.18220872411821698,0.24946236610412598,0.317585289478302,0.44878047704696655,0.968
V,122,2762,0.3653587934445249,0.18179562490507004,0.24872231483459473,0.31873905658721924,0.4463667869567871,0.976
V,123,2684,0.36452634269986667,0.1816246711858416,0.249417245388031,0.3198198080062866,0.44130435585975647,0.984
V,124,2604,0.3637633137102704,0.1795752840234117,0.2511961758136749,0.3193069398403168,0.4370180070400238,0.992
V,125,2536,0.36113979150460335,0.17903213148385477,0.25128206610679626,0.31956911087036133,0.4360465109348297,1.0
V,126,2468,0.35852961423840807,0.17583979310609751,0.24938875436782837,0.3177777826786041,0.4322659969329834,1.008
V,127,2424,0.35598188586607604,0.17410962817586306,0.25,0.3181299865245819,0.4280303120613098,1.016
V,128,2380,0.3552083476614833,0.17384320694538113,0.24941176176071167,0.31888890266418457,0.42824074625968933,1.024
V,129,2323,0.35552336427588993,0.1700341378360455,0.25087109208106995,0.3199999928474426,0.4293849766254425,1.032
V,130,2291,0.3545381047758662,0.16840972632428,0.25102880597114563,0.3198198080062866,0.42657342553138733,1.04
V,131,2235,0.35560909042403654,0.17131164166056098,0.251655638217926,0.3207547068595886,0.4237288236618042,1.048
V,132,2192,0.35625200184979,0.17145739850827083,0.25090253353118896,0.3207762539386749,0.4252873659133911,1.056
V,133,2145,0.35698274420899945,0.1688549142147656,0.2535460889339447,0.32438740134239197,0.4241733253002167,1.064
V,134,2104,0.3573751898330615,0.1669835261448801,0.25600001215934753,0.3233333230018616,0.42560553550720215,1.072
V,135,2057,0.3610130258063674,0.1709627837322917,0.25829383730888367,0.32707181572914124,0.428318589925766,1.08
V,136,2018,0.3646641331732899,0.171339430494604,0.2610722482204437,0.32974427938461304,0.42967885732650757,1.088
V,137,1956,0.36878478446411606,0.1716028149569066,0.26592355966567993,0.3353884220123291,0.4298136532306671,1.096
V,138,1914,0.3728726511533336,0.16937523216927813,0.26893940567970276,0.33992093801498413,0.43831169605255127,1.104
V,139,1870,0.3774174443710058,0.16885193396106768,0.2738095223903656,0.345762699842453,0.4384058117866516,1.112
V,140,1830,0.3816493366537692,0.17614857281701682,0.2759740352630615,0.3445783257484436,0.44211822748184204,1.12
V,141,1788,0.38526775426219867,0.17805952396582994,0.27533039450645447,0.3496503531932831,0.4457070827484131,1.128
V,142,1743,0.38988927035574866,0.17912333426670138,0.2798295319080353,0.3553459048271179,0.4540145993232727,1.136
V,143,1701,0.39428472945777077,0.18421542372315788,0.2822085916996002,0.35451504588127136,0.45659929513931274,1.144
V,144,1662,0.39598959195147415,0.18817398913393238,0.28659287095069885,0.3526834547519684,0.4529702961444855,1.152
V,145,1624,0.39513284799782217,0.1867257179105213,0.28731343150138855,0.34929269552230835,0.4498269855976105,1.16
V,146,1590,0.3952160684327425,0.18622246587241031,0.2885283827781677,0.34734514355659485,0.44800883531570435,1.168
V,147,1562,0.39496687750919945,0.18480252933915178,0.2882562279701233,0.3455759584903717,0.4545454680919647,1.176
V,148,1536,0.3946926375280479,0.18356843151759916,0.2891986072063446,0.3443557620048523,0.45375722646713257,1.184
V,149,1501,0.3943856353620235,0.18162308110405884,0.290909081697464,0.3420158624649048,0.4602917432785034,1.192
V,150,1471,0.394730293882389,0.1836251168760333,0.29010239243507385,0.3400000035762787,0.463819682598114,1.2
V,151,1440,0.39857153414632196,0.1880181177668748,0.2927400469779968,0.3400473892688751,0.4689655303955078,1.208
V,152,1409,0.40444311684604295,0.19608171252572162,0.29447853565216064,0.339483380317688,0.48022598028182983,1.216
V,153,1377,0.41037886972642607,0.20334896916653156,0.2925407886505127,0.3399532735347748,0.4967532455921173,1.224
V,154,1345,0.41537135970193656,0.20377210750414948,0.2918149530887604,0.34585633873939514,0.5068870782852173,1.232
V,155,1315,0.41631405960322276,0.2074042808725906,0.28947368264198303,0.3431053161621094,0.5231214165687561,1.24
V,156,1280,0.418619202168702,0.20888097164051256,0.29043683409690857,0.349040150642395,0.5280701518058777,1.248
V,157,1252,0.42301597609035907,0.20842437541219155,0.29039302468299866,0.34983497858047485,0.5483028888702393,1.256
V,158,1213,0.42528028651455424,0.20624514671645014,0.29080459475517273,0.35743802785873413,0.5370985865592957,1.264
V,159,1173,0.4264864198754733,0.20886177184144747,0.29216867685317993,0.35395190119743347,0.5472779273986816,1.272
V,160,1136,0.4274035156858203,0.20982091928448285,0.2968568205833435,0.3571428656578064,0.5310173630714417,1.28
V,161,1116,0.42428321893432086,0.20234490198386534,0.2991202473640442,0.35253456234931946,0.5298507213592529,1.288
V,162,1086,0.42001010440967457,0.19989379140901595,0.30225080251693726,0.35016465187072754,0.4994511604309082,1.296
V,163,1043,0.4176834396846514,0.19983104573624091,0.29988330602645874,0.3459770083427429,0.5040214657783508,1.304
V,164,1015,0.4145595419748223,0.19358144460595755,0.30494821071624756,0.3439635634422302,0.47868454456329346,1.312
V,165,977,0.40614822112927507,0.19030305881900741,0.30031949281692505,0.33758699893951416,0.4655172526836395,1.32
V,166,933,0.40196433289890904,0.18618432296947937,0.30087390542030334,0.3340163826942444,0.43589743971824646,1.328
V,167,892,0.3984265335790621,0.1826367969449477,0.30180180072784424,0.33224043250083923,0.43606138229370117,1.336
V,168,855,0.39388186817019305,0.17648648520792773,0.3011494278907776,0.33096927404403687,0.4203592836856842,1.344
V,169,819,0.3900678396265913,0.17339754688267425,0.29976579546928406,0.3274647891521454,0.4153522551059723,1.352
V,170,777,0.3929666878662745,0.1765793651993867,0.29967427253723145,0.32949307560920715,0.41590213775634766,1.36
V,171,739,0.3903326509282225,0.17233920375261075,0.2978723347187042,0.328125,0.41304346919059753,1.368
V,172,701,0.3853345573819993,0.1706791176195026,0.2958199381828308,0.325529545545578,0.4048442840576172,1.376
V,173,666,0.3873115775787884,0.1686712859744923,0.2947368323802948,0.325314998626709,0.4039580821990967,1.384
V,174,627,0.38864125019055235,0.17332769049524818,0.2947019934654236,0.32725200057029724,0.40460526943206787,1.392
V,175,586,0.38968648967482533,0.1780232886815308,0.2938775420188904,0.324719101190567,0.40145984292030334,1.4
V,176,565,0.38653026678129637,0.17079828811556624,0.2935034930706024,0.3248848021030426,0.4000000059604645,1.408
V,177,533,0.3795877774901283,0.16048184335777282,0.2910216748714447,0.3235294222831726,0.40221402049064636,1.416
V,178,491,0.3756929400534409,0.152095959355669,0.29347825050354004,0.3248848021030426,0.39789965748786926,1.424
V,179,450,0.3750378955983453,0.15774994770089823,0.28947368264198303,0.31949248909950256,0.3910256326198578,1.432
V,180,413,0.37927773452339103,0.16194680898566582,0.28588956594467163,0.32151299715042114,0.3973941504955292,1.44
V,181,368,0.3815200556393551,0.16219756174566088,0.285035640001297,0.32107022404670715,0.41246291995048523,1.448
